# "== FILTER DATA - LAMBDA 9 SPECTROPHOTOMETER =="
# "   KITT PEAK NATIONAL OBSERVATORY - NOAO"
#  ------------------------------------------------
# "FILTER: I SET a                       "
# "DATE: ""10/ 7/92"   "TIME: ""11:11:37"
# " CWL= "  8816.91A  "FWHM= " 3135.51A  "TMAX= "96.19 %
# "TCUTOFF= " 2.00 %  "SLITSIZE= "10 A
# 
# 
# 
# 
# "NPTS= " 531     "DISP= "10.00A/INTERVAL
   6700.00     -.005
   6710.00     -.005
   6720.00     -.005
   6730.00     -.005
   6740.00     -.005
   6750.00     -.005
   6760.00     -.010
   6770.00     -.005
   6780.00     -.005
   6790.00     -.005
   6800.00     -.010
   6810.00     -.005
   6820.00     -.005
   6830.00     -.005
   6840.00     -.005
   6850.00     -.005
   6860.00     -.005
   6870.00     -.005
   6880.00     -.005
   6890.00     -.005
   6900.00     -.005
   6910.00     -.005
   6920.00      .000
   6930.00      .000
   6940.00      .000
   6950.00      .010
   6960.00      .020
   6970.00      .045
   6980.00      .080
   6990.00      .150
   7000.00      .245
   7010.00      .390
   7020.00      .600
   7030.00      .890
   7040.00     1.285
   7050.00     1.795
   7060.00     2.445
   7070.00     3.255
   7080.00     4.230
   7090.00     5.390
   7100.00     6.770
   7110.00     8.310
   7120.00    10.045
   7130.00    11.965
   7140.00    14.075
   7150.00    16.315
   7160.00    18.745
   7170.00    21.295
   7180.00    23.900
   7190.00    26.680
   7200.00    29.540
   7210.00    32.420
   7220.00    35.300
   7230.00    38.230
   7240.00    41.195
   7250.00    44.010
   7260.00    46.810
   7270.00    49.550
   7280.00    52.295
   7290.00    54.960
   7300.00    57.475
   7310.00    60.025
   7320.00    62.305
   7330.00    64.635
   7340.00    66.705
   7350.00    68.770
   7360.00    70.720
   7370.00    72.545
   7380.00    74.250
   7390.00    75.990
   7400.00    77.355
   7410.00    78.865
   7420.00    80.210
   7430.00    81.505
   7440.00    82.700
   7450.00    83.710
   7460.00    84.800
   7470.00    85.705
   7480.00    86.655
   7490.00    87.385
   7500.00    87.985
   7510.00    88.810
   7520.00    89.505
   7530.00    90.125
   7540.00    90.490
   7550.00    90.905
   7560.00    91.390
   7570.00    92.080
   7580.00    92.275
   7590.00    92.705
   7600.00    92.980
   7610.00    93.245
   7620.00    93.615
   7630.00    93.735
   7640.00    93.925
   7650.00    94.265
   7660.00    94.445
   7670.00    94.485
   7680.00    94.865
   7690.00    94.865
   7700.00    95.085
   7710.00    95.130
   7720.00    95.375
   7730.00    95.480
   7740.00    95.490
   7750.00    95.550
   7760.00    95.525
   7770.00    95.795
   7780.00    95.840
   7790.00    95.835
   7800.00    95.840
   7810.00    95.880
   7820.00    95.900
   7830.00    95.845
   7840.00    96.005
   7850.00    95.945
   7860.00    95.820
   7870.00    96.010
   7880.00    96.090
   7890.00    96.070
   7900.00    95.975
   7910.00    96.105
   7920.00    96.050
   7930.00    96.125
   7940.00    96.190
   7950.00    96.000
   7960.00    95.930
   7970.00    96.075
   7980.00    96.155
   7990.00    95.985
   8000.00    96.110
   8010.00    95.895
   8020.00    96.070
   8030.00    96.015
   8040.00    95.805
   8050.00    95.745
   8060.00    95.840
   8070.00    95.905
   8080.00    95.935
   8090.00    95.600
   8100.00    95.825
   8110.00    95.630
   8120.00    95.760
   8130.00    95.600
   8140.00    95.705
   8150.00    95.785
   8160.00    95.690
   8170.00    95.565
   8180.00    95.565
   8190.00    95.290
   8200.00    95.430
   8210.00    95.435
   8220.00    95.295
   8230.00    95.445
   8240.00    95.375
   8250.00    95.300
   8260.00    95.210
   8270.00    95.345
   8280.00    95.270
   8290.00    95.075
   8300.00    95.040
   8310.00    94.995
   8320.00    95.030
   8330.00    94.925
   8340.00    94.830
   8350.00    94.595
   8360.00    94.760
   8370.00    94.725
   8380.00    94.540
   8390.00    94.725
   8400.00    94.565
   8410.00    94.475
   8420.00    94.425
   8430.00    94.450
   8440.00    94.140
   8450.00    94.230
   8460.00    94.175
   8470.00    94.115
   8480.00    93.955
   8490.00    94.015
   8500.00    93.540
   8510.00    93.795
   8520.00    93.680
   8530.00    93.670
   8540.00    93.370
   8550.00    93.810
   8560.00    93.410
   8570.00    93.875
   8580.00    93.380
   8590.00    93.110
   8600.00    93.040
   8610.00    92.305
   8620.00    92.205
   8630.00    92.160
   8640.00    92.145
   8650.00    92.050
   8660.00    91.900
   8670.00    91.830
   8680.00    91.735
   8690.00    91.640
   8700.00    91.530
   8710.00    91.405
   8720.00    91.340
   8730.00    91.220
   8740.00    91.110
   8750.00    91.085
   8760.00    90.960
   8770.00    90.850
   8780.00    90.780
   8790.00    90.620
   8800.00    90.570
   8810.00    90.470
   8820.00    90.375
   8830.00    90.285
   8840.00    90.245
   8850.00    90.095
   8860.00    90.020
   8870.00    89.930
   8880.00    89.800
   8890.00    89.675
   8900.00    89.580
   8910.00    89.465
   8920.00    89.340
   8930.00    89.225
   8940.00    89.125
   8950.00    89.000
   8960.00    88.830
   8970.00    88.775
   8980.00    88.585
   8990.00    88.475
   9000.00    88.390
   9010.00    88.210
   9020.00    88.135
   9030.00    88.005
   9040.00    87.900
   9050.00    87.800
   9060.00    87.665
   9070.00    87.490
   9080.00    87.385
   9090.00    87.285
   9100.00    87.135
   9110.00    86.980
   9120.00    86.850
   9130.00    86.680
   9140.00    86.540
   9150.00    86.410
   9160.00    86.260
   9170.00    86.090
   9180.00    85.960
   9190.00    85.820
   9200.00    85.685
   9210.00    85.535
   9220.00    85.375
   9230.00    85.200
   9240.00    85.070
   9250.00    84.880
   9260.00    84.730
   9270.00    84.530
   9280.00    84.390
   9290.00    84.200
   9300.00    84.030
   9310.00    83.900
   9320.00    83.670
   9330.00    83.515
   9340.00    83.355
   9350.00    83.165
   9360.00    82.940
   9370.00    82.755
   9380.00    82.585
   9390.00    82.465
   9400.00    82.240
   9410.00    82.095
   9420.00    81.870
   9430.00    81.700
   9440.00    81.505
   9450.00    81.315
   9460.00    81.060
   9470.00    80.895
   9480.00    80.715
   9490.00    80.425
   9500.00    80.235
   9510.00    80.020
   9520.00    79.775
   9530.00    79.585
   9540.00    79.340
   9550.00    79.080
   9560.00    78.840
   9570.00    78.600
   9580.00    78.365
   9590.00    78.110
   9600.00    77.860
   9610.00    77.645
   9620.00    77.360
   9630.00    77.185
   9640.00    76.925
   9650.00    76.630
   9660.00    76.405
   9670.00    76.160
   9680.00    75.925
   9690.00    75.615
   9700.00    75.325
   9710.00    75.080
   9720.00    74.815
   9730.00    74.560
   9740.00    74.300
   9750.00    74.010
   9760.00    73.685
   9770.00    73.440
   9780.00    73.090
   9790.00    72.815
   9800.00    72.530
   9810.00    72.225
   9820.00    71.945
   9830.00    71.600
   9840.00    71.260
   9850.00    70.980
   9860.00    70.675
   9870.00    70.335
   9880.00    70.005
   9890.00    69.675
   9900.00    69.340
   9910.00    69.010
   9920.00    68.680
   9930.00    68.295
   9940.00    67.895
   9950.00    67.540
   9960.00    67.230
   9970.00    66.835
   9980.00    66.465
   9990.00    66.150
  10000.00    65.770
  10010.00    65.380
  10020.00    65.005
  10030.00    64.620
  10040.00    64.240
  10050.00    63.880
  10060.00    63.420
  10070.00    63.080
  10080.00    62.705
  10090.00    62.325
  10100.00    61.895
  10110.00    61.480
  10120.00    61.065
  10130.00    60.635
  10140.00    60.250
  10150.00    59.790
  10160.00    59.400
  10170.00    58.900
  10180.00    58.505
  10190.00    58.030
  10200.00    57.620
  10210.00    57.185
  10220.00    56.695
  10230.00    56.275
  10240.00    55.815
  10250.00    55.380
  10260.00    54.890
  10270.00    54.425
  10280.00    53.955
  10290.00    53.485
  10300.00    53.005
  10310.00    52.530
  10320.00    52.065
  10330.00    51.570
  10340.00    51.080
  10350.00    50.600
  10360.00    50.120
  10370.00    49.615
  10380.00    49.120
  10390.00    48.635
  10400.00    48.105
  10410.00    47.595
  10420.00    47.130
  10430.00    46.650
  10440.00    46.090
  10450.00    45.655
  10460.00    45.150
  10470.00    44.615
  10480.00    44.175
  10490.00    43.615
  10500.00    43.050
  10510.00    42.555
  10520.00    42.095
  10530.00    41.580
  10540.00    41.085
  10550.00    40.540
  10560.00    40.055
  10570.00    39.565
  10580.00    38.985
  10590.00    38.510
  10600.00    37.950
  10610.00    37.530
  10620.00    36.985
  10630.00    36.465
  10640.00    35.955
  10650.00    35.435
  10660.00    34.945
  10670.00    34.390
  10680.00    33.830
  10690.00    33.310
  10700.00    32.825
  10710.00    32.395
  10720.00    31.850
  10730.00    31.355
  10740.00    30.840
  10750.00    30.360
  10760.00    29.850
  10770.00    29.310
  10780.00    28.855
  10790.00    28.430
  10800.00    27.865
  10810.00    27.360
  10820.00    26.920
  10830.00    26.470
  10840.00    26.010
  10850.00    25.510
  10860.00    25.040
  10870.00    24.555
  10880.00    24.095
  10890.00    23.670
  10900.00    23.215
  10910.00    22.730
  10920.00    22.325
  10930.00    21.910
  10940.00    21.440
  10950.00    21.020
  10960.00    20.555
  10970.00    20.145
  10980.00    19.690
  10990.00    19.325
  11000.00    18.915
  11010.00    18.435
  11020.00    18.115
  11030.00    17.690
  11040.00    17.245
  11050.00    16.950
  11060.00    16.495
  11070.00    16.140
  11080.00    15.730
  11090.00    15.415
  11100.00    15.050
  11110.00    14.640
  11120.00    14.350
  11130.00    13.935
  11140.00    13.615
  11150.00    13.275
  11160.00    12.975
  11170.00    12.605
  11180.00    12.285
  11190.00    11.970
  11200.00    11.720
  11210.00    11.425
  11220.00    11.110
  11230.00    10.775
  11240.00    10.510
  11250.00    10.240
  11260.00     9.995
  11270.00     9.705
  11280.00     9.420
  11290.00     9.145
  11300.00     8.815
  11310.00     8.765
  11320.00     8.430
  11330.00     8.110
  11340.00     7.850
  11350.00     7.650
  11360.00     7.405
  11370.00     7.300
  11380.00     7.080
  11390.00     6.820
  11400.00     6.610
  11410.00     6.415
  11420.00     6.225
  11430.00     6.010
  11440.00     5.830
  11450.00     5.695
  11460.00     5.590
  11470.00     5.360
  11480.00     5.080
  11490.00     5.120
  11500.00     4.835
  11510.00     4.700
  11520.00     4.680
  11530.00     4.390
  11540.00     4.275
  11550.00     4.175
  11560.00     3.970
  11570.00     3.795
  11580.00     3.650
  11590.00     3.520
  11600.00     3.370
  11610.00     3.270
  11620.00     3.180
  11630.00     3.090
  11640.00     2.945
  11650.00     2.910
  11660.00     2.795
  11670.00     2.680
  11680.00     2.615
  11690.00     2.485
  11700.00     2.305
  11710.00     2.245
  11720.00     2.275
  11730.00     2.165
  11740.00     2.140
  11750.00     2.025
  11760.00     1.945
  11770.00     1.880
  11780.00     1.785
  11790.00     1.755
  11800.00     1.690
  11810.00     1.610
  11820.00     1.595
  11830.00     1.510
  11840.00     1.440
  11850.00     1.395
  11860.00     1.280
  11870.00     1.250
  11880.00     1.155
  11890.00     1.010
  11900.00      .990
  11910.00     1.080
  11920.00     1.005
  11930.00      .965
  11940.00     1.020
  11950.00      .950
  11960.00      .930
  11970.00      .865
  11980.00      .845
  11990.00      .745
  12000.00      .880
